Energy(eV)  cross_section(angstrom^2/1e-16cm^2) SOURCE: JS Yoon 2008
33
15.	0.028
16.	0.033
17. 	0.037
17.5	0.038
19.	0.039
20.	0.04
21.	0.04
23.5	0.04
26.	0.04
30.	0.04
40.	0.041
50.	0.041
60.	0.039
70. 	0.036
80.	0.034
100. 	0.029
120. 	0.026
140.	0.024
160.	0.022
180.	0.021
200.	0.02
220.	0.019
240.	0.018
260.	0.017
280.	0.016
300.	0.015
400.	0.012
500.	0.0096
600.	0.008
700.	0.0069
800.	0.0061
900.	0.0064
1000.	0.0049
